* This data was exported from the Dayton Audio Test System: DATS
*
* Piston Diameter = 94.17 mm
* f(s)= 74.794 Hz
* R(e)= 7.6084 Ohms
* Z(max)= 44.659 Ohms
* Q(ms)= 2.6073
* Q(es)= 0.53542
* Q(ts)= 0.4442
* V(as)= 0 liters     (0 cubic feet)
* L(e)= 0.24341 mH
* n(0)= 0 %
* SPL= 0 1W/1m
* M(ms)= 0 grams
* C(ms)= 0 mm/N
* BL= 0 
* K(r)= 0.25626 
* X(r)= 0.362 
* K(i)= 0.0024253 
* X(i)= 0.77892 
*
*
Freq            Impedance       Phase
1.029    	7.587    	2.764    
1.059    	7.587    	2.764    
1.091    	7.587    	2.764    
1.122    	7.587    	2.764    
1.155    	7.587    	2.764    
1.189    	7.587    	2.764    
1.224    	7.587    	2.764    
1.260    	7.587    	2.764    
1.297    	7.587    	2.764    
1.335    	7.601    	2.871    
1.374    	7.601    	2.871    
1.414    	7.601    	2.871    
1.456    	7.601    	2.871    
1.498    	7.601    	2.871    
1.542    	7.601    	2.871    
1.587    	7.601    	2.871    
1.634    	7.601    	2.871    
1.682    	7.622    	3.012    
1.731    	7.622    	3.012    
1.782    	7.622    	3.012    
1.834    	7.622    	3.012    
1.888    	7.622    	3.012    
1.943    	7.622    	3.012    
2.000    	7.625    	3.255    
2.059    	7.625    	3.255    
2.119    	7.625    	3.255    
2.181    	7.625    	3.255    
2.245    	7.625    	3.255    
2.311    	7.625    	3.255    
2.378    	7.620    	3.585    
2.448    	7.620    	3.585    
2.520    	7.620    	3.585    
2.594    	7.620    	3.585    
2.670    	7.606    	3.962    
2.748    	7.606    	3.962    
2.828    	7.606    	3.962    
2.911    	7.606    	3.962    
2.997    	7.610    	4.361    
3.084    	7.610    	4.361    
3.175    	7.610    	4.361    
3.268    	7.610    	4.361    
3.364    	7.647    	4.789    
3.462    	7.647    	4.789    
3.564    	7.647    	4.789    
3.668    	7.698    	5.242    
3.775    	7.698    	5.242    
3.886    	7.698    	5.242    
4.000    	7.730    	5.687    
4.117    	7.730    	5.687    
4.238    	7.730    	5.687    
4.362    	7.739    	6.094    
4.490    	7.739    	6.094    
4.621    	7.739    	6.094    
4.757    	7.748    	6.487    
4.896    	7.748    	6.487    
5.040    	7.761    	6.899    
5.187    	7.761    	6.899    
5.339    	7.775    	7.328    
5.496    	7.775    	7.328    
5.657    	7.790    	7.766    
5.823    	7.790    	7.766    
5.993    	7.814    	8.205    
6.169    	7.814    	8.205    
6.350    	7.843    	8.646    
6.536    	7.843    	8.646    
6.727    	7.873    	9.092    
6.924    	7.873    	9.092    
7.127    	7.908    	9.533    
7.336    	7.945    	9.958    
7.551    	7.945    	9.958    
7.772    	7.977    	10.365    
8.000    	8.005    	10.760    
8.234    	8.005    	10.760    
8.476    	8.028    	11.152    
8.724    	8.046    	11.554    
8.980    	8.061    	11.966    
9.243    	8.061    	11.966    
9.514    	8.079    	12.391    
9.792    	8.105    	12.836    
10.079    	8.132    	13.303    
10.375    	8.155    	13.779    
10.679    	8.180    	14.247    
10.992    	8.211    	14.695    
11.314    	8.243    	15.117    
11.645    	8.277    	15.513    
11.986    	8.313    	15.882    
12.338    	8.348    	16.230    
12.699    	8.374    	16.564    
13.071    	8.395    	16.890    
13.454    	8.417    	17.219    
13.849    	8.440    	17.557    
14.254    	8.464    	17.905    
14.672    	8.510    	18.437    
15.102    	8.567    	18.979    
15.545    	8.605    	19.344    
16.000    	8.662    	19.877    
16.469    	8.729    	20.398    
16.951    	8.806    	20.907    
17.448    	8.882    	21.401    
17.959    	8.950    	21.894    
18.486    	9.012    	22.394    
19.027    	9.077    	22.902    
19.585    	9.160    	23.595    
20.159    	9.224    	24.118    
20.749    	9.290    	24.640    
21.357    	9.382    	25.321    
21.983    	9.489    	25.963    
22.627    	9.594    	26.564    
23.290    	9.708    	27.116    
23.973    	9.827    	27.649    
24.675    	9.949    	28.187    
25.398    	10.079    	28.770    
26.143    	10.226    	29.409    
26.909    	10.402    	30.290    
27.697    	10.572    	31.208    
28.509    	10.692    	31.915    
29.344    	10.827    	32.684    
30.204    	10.997    	33.413    
31.089    	11.154    	33.883    
32.000    	11.362    	34.327    
32.938    	11.625    	34.839    
33.903    	11.934    	35.481    
34.896    	12.262    	36.239    
35.919    	12.591    	37.075    
36.971    	12.909    	37.916    
38.055    	13.215    	38.686    
39.170    	13.578    	39.411    
40.317    	13.968    	39.977    
41.499    	14.419    	40.434    
42.715    	14.924    	40.864    
43.967    	15.473    	41.440    
45.255    	16.140    	42.080    
46.581    	16.817    	42.681    
47.946    	17.496    	43.081    
49.351    	18.238    	43.067    
50.797    	19.279    	42.783    
52.285    	20.527    	42.604    
53.817    	21.884    	42.648    
55.394    	23.382    	42.623    
57.018    	24.696    	42.078    
58.688    	26.127    	40.775    
60.408    	28.265    	38.397    
62.178    	30.841    	35.704    
64.000    	33.374    	33.142    
65.875    	35.854    	29.863    
67.806    	38.347    	25.080    
69.792    	41.058    	19.344    
71.838    	43.433    	13.742    
73.943    	44.527    	7.860    
76.109    	44.587    	0.318    
78.339    	44.388    	-8.230    
80.635    	43.936    	-15.478    
82.998    	42.404    	-20.747    
85.430    	39.542    	-25.425    
87.933    	36.567    	-30.758    
90.510    	34.293    	-35.006    
93.162    	31.992    	-38.013    
95.892    	29.682    	-41.311    
98.701    	28.061    	-43.181    
101.594    	26.103    	-43.560    
104.571    	23.770    	-45.224    
107.635    	22.535    	-47.486    
110.789    	21.589    	-47.624    
114.035    	20.384    	-47.206    
117.377    	19.178    	-46.741    
120.816    	17.816    	-46.982    
124.356    	17.157    	-48.356    
128.000    	16.968    	-46.736    
131.751    	15.828    	-44.590    
135.611    	14.827    	-45.096    
139.585    	14.433    	-45.776    
143.675    	14.388    	-44.251    
147.885    	13.552    	-40.999    
152.219    	12.619    	-42.442    
156.679    	12.734    	-42.561    
161.270    	12.472    	-39.555    
165.995    	11.637    	-38.215    
170.860    	11.463    	-39.751    
175.866    	11.446    	-36.886    
181.019    	10.856    	-35.562    
186.324    	10.644    	-35.949    
191.783    	10.645    	-33.877    
197.403    	10.149    	-33.117    
203.187    	10.135    	-32.438    
209.141    	9.904    	-30.905    
215.269    	9.669    	-30.433    
221.577    	9.595    	-28.776    
228.070    	9.382    	-28.267    
234.753    	9.287    	-26.997    
241.632    	9.129    	-25.940    
248.712    	9.069    	-24.950    
256.000    	8.914    	-24.008    
263.501    	8.846    	-22.874    
271.223    	8.745    	-21.970    
279.170    	8.679    	-20.873    
287.350    	8.608    	-20.058    
295.770    	8.531    	-19.024    
304.437    	8.484    	-18.124    
313.358    	8.417    	-17.204    
322.540    	8.372    	-16.241    
331.991    	8.329    	-15.357    
341.719    	8.288    	-14.475    
351.732    	8.254    	-13.600    
362.039    	8.223    	-12.767    
372.647    	8.193    	-11.925    
383.567    	8.167    	-11.079    
394.806    	8.149    	-10.217    
406.375    	8.137    	-9.421    
418.282    	8.125    	-8.649    
430.539    	8.113    	-7.875    
443.155    	8.102    	-7.101    
456.140    	8.097    	-6.303    
469.506    	8.097    	-5.524    
483.264    	8.107    	-4.744    
497.424    	8.125    	-4.010    
512.000    	8.146    	-3.367    
527.003    	8.160    	-2.741    
542.445    	8.171    	-2.130    
558.340    	8.187    	-1.515    
574.701    	8.201    	-0.900    
591.541    	8.222    	-0.290    
608.874    	8.258    	0.272    
626.715    	8.296    	0.662    
645.080    	8.305    	0.898    
663.982    	8.274    	1.225    
683.438    	8.234    	1.835    
703.464    	8.213    	2.555    
724.077    	8.208    	3.378    
745.294    	8.218    	4.194    
767.133    	8.244    	5.006    
789.612    	8.276    	5.805    
812.749    	8.320    	6.567    
836.565    	8.376    	7.295    
861.078    	8.440    	7.968    
886.309    	8.513    	8.553    
912.280    	8.590    	9.033    
939.012    	8.666    	9.401    
966.527    	8.728    	9.636    
994.849    	8.771    	9.871    
1024.000    	8.761    	10.073    
1054.005    	8.743    	10.536    
1084.890    	8.738    	11.227    
1116.680    	8.754    	12.048    
1149.401    	8.796    	12.900    
1183.081    	8.864    	13.737    
1217.748    	8.947    	14.504    
1253.431    	9.043    	15.249    
1290.159    	9.166    	15.947    
1327.964    	9.302    	16.384    
1366.876    	9.414    	16.723    
1406.929    	9.520    	17.102    
1448.155    	9.642    	17.497    
1490.589    	9.779    	17.804    
1534.266    	9.944    	17.971    
1579.224    	10.104    	17.712    
1625.499    	10.186    	17.320    
1673.129    	10.259    	17.017    
1722.156    	10.270    	16.377    
1772.619    	10.155    	16.084    
1824.561    	10.047    	16.523    
1878.024    	10.000    	17.188    
1933.055    	9.983    	17.900    
1989.697    	10.010    	18.687    
2048.000    	10.054    	19.399    
2108.011    	10.089    	20.091    
2169.780    	10.157    	20.786    
2233.360    	10.217    	21.424    
2298.802    	10.290    	22.158    
2366.162    	10.372    	22.812    
2435.496    	10.471    	23.573    
2506.862    	10.590    	24.176    
2580.318    	10.725    	24.800    
2655.927    	10.844    	25.193    
2733.752    	10.956    	25.680    
2813.857    	11.058    	26.222    
2896.309    	11.208    	26.864    
2981.178    	11.385    	27.314    
3068.533    	11.566    	27.464    
3158.448    	11.671    	27.505    
3250.997    	11.749    	27.817    
3346.259    	11.870    	28.178    
3444.312    	11.982    	28.436    
3545.238    	12.079    	28.687    
3649.121    	12.145    	28.917    
3756.049    	12.173    	29.449    
3866.109    	12.261    	30.244    
3979.395    	12.399    	31.036    
4096.000    	12.590    	31.696    
4216.022    	12.781    	32.137    
4339.561    	12.950    	32.466    
4466.720    	13.086    	32.935    
4597.605    	13.270    	33.493    
4732.325    	13.492    	33.953    
4870.992    	13.734    	34.122    
5013.723    	13.904    	34.104    
5160.637    	14.025    	34.127    
5311.855    	14.061    	34.340    
5467.504    	14.138    	35.048    
5627.714    	14.291    	35.720    
5792.619    	14.457    	36.388    
5962.355    	14.668    	37.086    
6137.066    	14.923    	37.647    
6316.896    	15.167    	38.045    
6501.995    	15.412    	38.379    
6692.518    	15.631    	38.633    
6888.623    	15.803    	38.907    
7090.476    	15.980    	39.546    
7298.242    	16.264    	40.044    
7512.097    	16.505    	40.353    
7732.218    	16.729    	40.807    
7958.790    	16.995    	41.285    
8192.000    	17.260    	41.704    
8432.044    	17.552    	42.180    
8679.122    	17.878    	42.533    
8933.439    	18.168    	42.766    
9195.209    	18.438    	43.121    
9464.649    	18.747    	43.511    
9741.985    	19.069    	43.834    
10027.447    	19.392    	44.120    
10321.273    	19.713    	44.371    
10623.710    	20.016    	44.648    
10935.008    	20.338    	45.002    
11255.428    	20.693    	45.333    
11585.238    	21.053    	45.587    
11924.711    	21.397    	45.838    
12274.132    	21.750    	46.145    
12633.791    	22.135    	46.409    
13003.989    	22.499    	46.681    
13385.035    	22.888    	46.959    
13777.247    	23.282    	47.220    
14180.951    	23.683    	47.480    
14596.485    	24.096    	47.737    
15024.194    	24.522    	47.988    
15464.437    	24.960    	48.228    
15917.579    	25.409    	48.441    
16384.000    	25.862    	48.653    
16864.088    	26.319    	48.853    
17358.243    	26.774    	49.052    
17866.879    	27.223    	49.249    
18390.418    	27.666    	49.430    
18929.299    	28.090    	49.606    
19483.969    	28.511    	49.789    
20054.893    	28.904    	49.973    
20642.546    	29.237    	50.202    
