* This data was exported from the Dayton Audio Test System: DATS
*
* Piston Diameter = 94.17 mm
* f(s)= 192.25 Hz
* R(e)= 8.7127 Ohms
* Z(max)= 23.208 Ohms
* Q(ms)= 3.6512
* Q(es)= 2.1946
* Q(ts)= 1.3707
* V(as)= 0 liters     (0 cubic feet)
* L(e)= 0.2712 mH
* n(0)= 0 %
* SPL= 0 1W/1m
* M(ms)= 0 grams
* C(ms)= 0 mm/N
* BL= 0 
* K(r)= 0.44477 
* X(r)= 0.3166 
* K(i)= 0.0016805 
* X(i)= 0.81072 
*
*
Freq            Impedance       Phase
1.029    	8.723    	2.117    
1.059    	8.723    	2.117    
1.091    	8.723    	2.117    
1.122    	8.723    	2.117    
1.155    	8.723    	2.117    
1.189    	8.723    	2.117    
1.224    	8.723    	2.117    
1.260    	8.723    	2.117    
1.297    	8.723    	2.117    
1.335    	8.717    	2.272    
1.374    	8.717    	2.272    
1.414    	8.717    	2.272    
1.456    	8.717    	2.272    
1.498    	8.717    	2.272    
1.542    	8.717    	2.272    
1.587    	8.717    	2.272    
1.634    	8.717    	2.272    
1.682    	8.718    	2.447    
1.731    	8.718    	2.447    
1.782    	8.718    	2.447    
1.834    	8.718    	2.447    
1.888    	8.718    	2.447    
1.943    	8.718    	2.447    
2.000    	8.726    	2.728    
2.059    	8.726    	2.728    
2.119    	8.726    	2.728    
2.181    	8.726    	2.728    
2.245    	8.726    	2.728    
2.311    	8.726    	2.728    
2.378    	8.740    	3.055    
2.448    	8.740    	3.055    
2.520    	8.740    	3.055    
2.594    	8.740    	3.055    
2.670    	8.750    	3.383    
2.748    	8.750    	3.383    
2.828    	8.750    	3.383    
2.911    	8.750    	3.383    
2.997    	8.760    	3.691    
3.084    	8.760    	3.691    
3.175    	8.760    	3.691    
3.268    	8.760    	3.691    
3.364    	8.778    	4.012    
3.462    	8.778    	4.012    
3.564    	8.778    	4.012    
3.668    	8.795    	4.402    
3.775    	8.795    	4.402    
3.886    	8.795    	4.402    
4.000    	8.813    	4.799    
4.117    	8.813    	4.799    
4.238    	8.813    	4.799    
4.362    	8.825    	5.195    
4.490    	8.825    	5.195    
4.621    	8.825    	5.195    
4.757    	8.843    	5.603    
4.896    	8.843    	5.603    
5.040    	8.862    	6.001    
5.187    	8.862    	6.001    
5.339    	8.882    	6.380    
5.496    	8.882    	6.380    
5.657    	8.904    	6.740    
5.823    	8.904    	6.740    
5.993    	8.928    	7.084    
6.169    	8.928    	7.084    
6.350    	8.956    	7.419    
6.536    	8.956    	7.419    
6.727    	8.985    	7.751    
6.924    	8.985    	7.751    
7.127    	9.015    	8.074    
7.336    	9.046    	8.396    
7.551    	9.046    	8.396    
7.772    	9.075    	8.720    
8.000    	9.104    	9.047    
8.234    	9.104    	9.047    
8.476    	9.134    	9.378    
8.724    	9.167    	9.715    
8.980    	9.204    	10.058    
9.243    	9.204    	10.058    
9.514    	9.247    	10.411    
9.792    	9.291    	10.770    
10.079    	9.334    	11.125    
10.375    	9.373    	11.470    
10.679    	9.408    	11.803    
10.992    	9.440    	12.126    
11.314    	9.467    	12.440    
11.645    	9.494    	12.741    
11.986    	9.525    	13.028    
12.338    	9.561    	13.304    
12.699    	9.601    	13.568    
13.071    	9.643    	13.816    
13.454    	9.689    	14.046    
13.849    	9.739    	14.264    
14.254    	9.791    	14.473    
14.672    	9.870    	14.776    
15.102    	9.945    	15.083    
15.545    	9.994    	15.290    
16.000    	10.080    	15.601    
16.469    	10.179    	15.914    
16.951    	10.283    	16.216    
17.448    	10.386    	16.505    
17.959    	10.485    	16.789    
18.486    	10.581    	17.066    
19.027    	10.675    	17.337    
19.585    	10.797    	17.677    
20.159    	10.891    	17.899    
20.749    	10.993    	18.091    
21.357    	11.133    	18.288    
21.983    	11.268    	18.439    
22.627    	11.393    	18.558    
23.290    	11.521    	18.644    
23.973    	11.661    	18.692    
24.675    	11.816    	18.711    
25.398    	11.979    	18.707    
26.143    	12.140    	18.685    
26.909    	12.330    	18.658    
27.697    	12.514    	18.642    
28.509    	12.647    	18.633    
29.344    	12.794    	18.574    
30.204    	12.946    	18.354    
31.089    	13.058    	18.023    
32.000    	13.190    	17.540    
32.938    	13.358    	16.952    
33.903    	13.569    	16.294    
34.896    	13.798    	15.677    
35.919    	14.018    	15.159    
36.971    	14.205    	14.740    
38.055    	14.371    	14.399    
39.170    	14.524    	14.060    
40.317    	14.626    	13.706    
41.499    	14.686    	13.268    
42.715    	14.716    	12.675    
43.967    	14.764    	11.651    
45.255    	14.864    	10.464    
46.581    	15.001    	9.489    
47.946    	15.120    	8.920    
49.351    	15.142    	8.341    
50.797    	15.092    	7.524    
52.285    	15.055    	6.525    
53.817    	15.081    	5.543    
55.394    	15.154    	4.767    
57.018    	15.183    	4.581    
58.688    	15.180    	4.651    
60.408    	14.992    	4.401    
62.178    	14.794    	3.902    
64.000    	14.864    	3.043    
65.875    	15.166    	1.783    
67.806    	15.339    	0.815    
69.792    	15.206    	-0.249    
71.838    	14.841    	-1.652    
73.943    	14.575    	-2.569    
76.109    	14.410    	-2.708    
78.339    	14.111    	-2.130    
80.635    	13.668    	-2.249    
82.998    	13.458    	-3.387    
85.430    	13.564    	-3.444    
87.933    	13.505    	-2.151    
90.510    	13.198    	-1.619    
93.162    	13.079    	-1.770    
95.892    	13.074    	-1.411    
98.701    	12.816    	-0.880    
101.594    	12.610    	-1.264    
104.571    	12.836    	-0.584    
107.635    	12.762    	1.922    
110.789    	12.480    	2.236    
114.035    	12.647    	1.912    
117.377    	12.685    	3.051    
120.816    	12.694    	3.372    
124.356    	12.920    	4.776    
128.000    	12.662    	6.254    
131.751    	12.834    	5.927    
135.611    	13.298    	8.010    
139.585    	13.361    	9.433    
143.675    	13.867    	10.608    
147.885    	14.300    	11.486    
152.219    	15.302    	11.405    
156.679    	15.697    	12.408    
161.270    	16.741    	11.667    
165.995    	18.123    	11.319    
170.860    	19.674    	7.800    
175.866    	19.951    	3.301    
181.019    	20.812    	1.658    
186.324    	22.062    	-1.815    
191.783    	23.095    	-9.021    
197.403    	22.699    	-16.890    
203.187    	21.414    	-22.285    
209.141    	20.028    	-27.472    
215.269    	18.234    	-30.872    
221.577    	16.605    	-32.874    
228.070    	15.192    	-33.522    
234.753    	14.069    	-33.194    
241.632    	13.109    	-32.308    
248.712    	12.395    	-30.930    
256.000    	11.814    	-29.597    
263.501    	11.328    	-27.998    
271.223    	10.939    	-26.408    
279.170    	10.645    	-24.760    
287.350    	10.395    	-23.329    
295.770    	10.173    	-21.805    
304.437    	10.006    	-20.418    
313.358    	9.845    	-19.056    
322.540    	9.728    	-17.663    
331.991    	9.634    	-16.510    
341.719    	9.540    	-15.348    
351.732    	9.470    	-14.202    
362.039    	9.406    	-13.157    
372.647    	9.355    	-12.171    
383.567    	9.308    	-11.163    
394.806    	9.270    	-10.207    
406.375    	9.240    	-9.277    
418.282    	9.221    	-8.362    
430.539    	9.213    	-7.507    
443.155    	9.212    	-6.734    
456.140    	9.202    	-6.029    
469.506    	9.191    	-5.339    
483.264    	9.178    	-4.601    
497.424    	9.169    	-3.851    
512.000    	9.173    	-3.108    
527.003    	9.183    	-2.398    
542.445    	9.193    	-1.694    
558.340    	9.212    	-0.987    
574.701    	9.244    	-0.342    
591.541    	9.284    	0.235    
608.874    	9.326    	0.708    
626.715    	9.359    	1.017    
645.080    	9.354    	1.305    
663.982    	9.328    	1.690    
683.438    	9.289    	2.269    
703.464    	9.271    	3.011    
724.077    	9.272    	3.781    
745.294    	9.289    	4.573    
767.133    	9.318    	5.376    
789.612    	9.358    	6.169    
812.749    	9.412    	6.964    
836.565    	9.486    	7.779    
861.078    	9.581    	8.569    
886.309    	9.707    	9.327    
912.280    	9.869    	9.983    
939.012    	10.087    	10.367    
966.527    	10.334    	10.228    
994.849    	10.563    	9.447    
1024.000    	10.687    	7.946    
1054.005    	10.493    	5.889    
1084.890    	10.006    	5.739    
1116.680    	9.768    	7.538    
1149.401    	9.745    	9.009    
1183.081    	9.780    	10.169    
1217.748    	9.825    	11.088    
1253.431    	9.886    	12.016    
1290.159    	9.972    	12.849    
1327.964    	10.070    	13.545    
1366.876    	10.157    	14.196    
1406.929    	10.263    	14.815    
1448.155    	10.374    	15.432    
1490.589    	10.504    	16.068    
1534.266    	10.684    	16.685    
1579.224    	10.941    	16.990    
1625.499    	11.193    	16.628    
1673.129    	11.393    	15.587    
1722.156    	11.311    	14.163    
1772.619    	11.095    	14.086    
1824.561    	10.994    	14.562    
1878.024    	10.940    	15.034    
1933.055    	10.885    	15.629    
1989.697    	10.863    	16.416    
2048.000    	10.896    	17.165    
2108.011    	10.929    	17.858    
2169.780    	10.990    	18.635    
2233.360    	11.088    	19.250    
2298.802    	11.114    	19.647    
2366.162    	11.178    	20.522    
2435.496    	11.279    	21.123    
2506.862    	11.355    	21.706    
2580.318    	11.456    	22.397    
2655.927    	11.570    	22.956    
2733.752    	11.656    	23.497    
2813.857    	11.753    	24.275    
2896.309    	11.909    	25.093    
2981.178    	12.118    	25.838    
3068.533    	12.398    	26.171    
3158.448    	12.679    	26.200    
3250.997    	12.769    	24.796    
3346.259    	12.578    	25.550    
3444.312    	12.719    	26.412    
3545.238    	12.865    	26.806    
3649.121    	13.021    	27.043    
3756.049    	13.108    	27.188    
3866.109    	13.154    	27.318    
3979.395    	13.140    	28.053    
4096.000    	13.279    	28.973    
4216.022    	13.455    	29.542    
4339.561    	13.625    	30.070    
4466.720    	13.787    	30.444    
4597.605    	13.966    	30.918    
4732.325    	14.088    	31.291    
4870.992    	14.296    	31.929    
5013.723    	14.532    	32.087    
5160.637    	14.702    	32.153    
5311.855    	14.771    	32.153    
5467.504    	14.784    	32.766    
5627.714    	14.953    	33.531    
5792.619    	15.130    	34.052    
5962.355    	15.284    	34.649    
6137.066    	15.514    	35.375    
6316.896    	15.761    	35.739    
6501.995    	15.975    	36.175    
6692.518    	16.207    	36.489    
6888.623    	16.392    	36.747    
7090.476    	16.532    	37.284    
7298.242    	16.792    	37.884    
7512.097    	17.031    	38.272    
7732.218    	17.245    	38.716    
7958.790    	17.499    	39.239    
8192.000    	17.763    	39.692    
8432.044    	18.039    	40.171    
8679.122    	18.343    	40.596    
8933.439    	18.648    	40.904    
9195.209    	18.916    	41.240    
9464.649    	19.199    	41.642    
9741.985    	19.509    	42.015    
10027.447    	19.825    	42.362    
10321.273    	20.146    	42.652    
10623.710    	20.440    	42.953    
10935.008    	20.749    	43.336    
11255.428    	21.086    	43.709    
11585.238    	21.444    	44.037    
11924.711    	21.789    	44.315    
12274.132    	22.126    	44.637    
12633.791    	22.504    	44.943    
13003.989    	22.856    	45.271    
13385.035    	23.239    	45.596    
13777.247    	23.628    	45.894    
14180.951    	24.023    	46.197    
14596.485    	24.426    	46.491    
15024.194    	24.839    	46.792    
15464.437    	25.275    	47.073    
15917.579    	25.713    	47.336    
16384.000    	26.162    	47.584    
16864.088    	26.613    	47.821    
17358.243    	27.066    	48.077    
17866.879    	27.518    	48.317    
18390.418    	27.966    	48.556    
18929.299    	28.413    	48.784    
19483.969    	28.859    	49.015    
20054.893    	29.297    	49.256    
20642.546    	29.720    	49.534    
