* This data was exported from the Dayton Audio Test System: DATS
*
* Piston Diameter = 0 mm
* f(s)= 196.73 Hz
* R(e)= 8.68 Ohms
* Z(max)= 21.243 Ohms
* Q(ms)= 3.3918
* Q(es)= 2.3434
* Q(ts)= 1.3859
* V(as)= 0 liters     (0 cubic feet)
* L(e)= 0.2674 mH
* n(0)= 0 %
* SPL= 0 1W/1m
* M(ms)= 0 grams
* C(ms)= 0 mm/N
* BL= 0 
* K(r)= 0.36022 
* X(r)= 0.33639 
* K(i)= 0.0020746 
* X(i)= 0.79342 
*
*
Freq            Impedance       Phase
1.029    	8.692    	2.368    
1.059    	8.692    	2.368    
1.091    	8.692    	2.368    
1.122    	8.692    	2.368    
1.155    	8.692    	2.368    
1.189    	8.692    	2.368    
1.224    	8.692    	2.368    
1.260    	8.692    	2.368    
1.297    	8.692    	2.368    
1.335    	8.689    	2.507    
1.374    	8.689    	2.507    
1.414    	8.689    	2.507    
1.456    	8.689    	2.507    
1.498    	8.689    	2.507    
1.542    	8.689    	2.507    
1.587    	8.689    	2.507    
1.634    	8.689    	2.507    
1.682    	8.687    	2.659    
1.731    	8.687    	2.659    
1.782    	8.687    	2.659    
1.834    	8.687    	2.659    
1.888    	8.687    	2.659    
1.943    	8.687    	2.659    
2.000    	8.686    	2.871    
2.059    	8.686    	2.871    
2.119    	8.686    	2.871    
2.181    	8.686    	2.871    
2.245    	8.686    	2.871    
2.311    	8.686    	2.871    
2.378    	8.689    	3.114    
2.448    	8.689    	3.114    
2.520    	8.689    	3.114    
2.594    	8.689    	3.114    
2.670    	8.689    	3.422    
2.748    	8.689    	3.422    
2.828    	8.689    	3.422    
2.911    	8.689    	3.422    
2.997    	8.695    	3.726    
3.084    	8.695    	3.726    
3.175    	8.695    	3.726    
3.268    	8.695    	3.726    
3.364    	8.711    	4.078    
3.462    	8.711    	4.078    
3.564    	8.711    	4.078    
3.668    	8.728    	4.446    
3.775    	8.728    	4.446    
3.886    	8.728    	4.446    
4.000    	8.748    	4.820    
4.117    	8.748    	4.820    
4.238    	8.748    	4.820    
4.362    	8.756    	5.208    
4.490    	8.756    	5.208    
4.621    	8.756    	5.208    
4.757    	8.770    	5.594    
4.896    	8.770    	5.594    
5.040    	8.786    	5.982    
5.187    	8.786    	5.982    
5.339    	8.805    	6.361    
5.496    	8.805    	6.361    
5.657    	8.827    	6.718    
5.823    	8.827    	6.718    
5.993    	8.851    	7.063    
6.169    	8.851    	7.063    
6.350    	8.879    	7.399    
6.536    	8.879    	7.399    
6.727    	8.909    	7.730    
6.924    	8.909    	7.730    
7.127    	8.940    	8.062    
7.336    	8.968    	8.394    
7.551    	8.968    	8.394    
7.772    	8.994    	8.728    
8.000    	9.018    	9.069    
8.234    	9.018    	9.069    
8.476    	9.044    	9.413    
8.724    	9.073    	9.760    
8.980    	9.103    	10.107    
9.243    	9.103    	10.107    
9.514    	9.136    	10.452    
9.792    	9.172    	10.798    
10.079    	9.211    	11.141    
10.375    	9.249    	11.474    
10.679    	9.286    	11.799    
10.992    	9.318    	12.119    
11.314    	9.345    	12.433    
11.645    	9.370    	12.740    
11.986    	9.401    	13.039    
12.338    	9.437    	13.338    
12.699    	9.477    	13.631    
13.071    	9.518    	13.907    
13.454    	9.561    	14.163    
13.849    	9.608    	14.409    
14.254    	9.655    	14.651    
14.672    	9.728    	15.007    
15.102    	9.802    	15.363    
15.545    	9.851    	15.613    
16.000    	9.932    	16.003    
16.469    	10.021    	16.394    
16.951    	10.112    	16.773    
17.448    	10.202    	17.139    
17.959    	10.287    	17.485    
18.486    	10.370    	17.821    
19.027    	10.459    	18.154    
19.585    	10.584    	18.579    
20.159    	10.679    	18.874    
20.749    	10.778    	19.135    
21.357    	10.914    	19.431    
21.983    	11.045    	19.689    
22.627    	11.173    	19.929    
23.290    	11.314    	20.153    
23.973    	11.469    	20.345    
24.675    	11.636    	20.502    
25.398    	11.802    	20.616    
26.143    	11.970    	20.716    
26.909    	12.181    	20.839    
27.697    	12.391    	20.964    
28.509    	12.546    	21.037    
29.344    	12.729    	21.044    
30.204    	12.927    	20.902    
31.089    	13.083    	20.659    
32.000    	13.270    	20.283    
32.938    	13.504    	19.802    
33.903    	13.778    	19.263    
34.896    	14.058    	18.756    
35.919    	14.322    	18.319    
36.971    	14.564    	17.947    
38.055    	14.783    	17.582    
39.170    	14.994    	17.097    
40.317    	15.147    	16.532    
41.499    	15.272    	15.896    
42.715    	15.409    	15.171    
43.967    	15.574    	14.067    
45.255    	15.762    	12.790    
46.581    	15.933    	11.838    
47.946    	16.052    	11.198    
49.351    	15.985    	9.686    
50.797    	16.057    	8.729    
52.285    	16.190    	7.831    
53.817    	16.268    	6.543    
55.394    	16.333    	5.583    
57.018    	16.325    	5.343    
58.688    	16.332    	5.226    
60.408    	16.241    	4.216    
62.178    	16.068    	2.902    
64.000    	16.112    	1.626    
65.875    	16.255    	0.553    
67.806    	16.346    	-0.283    
69.792    	16.217    	-1.656    
71.838    	15.926    	-3.235    
73.943    	15.702    	-4.373    
76.109    	15.432    	-4.875    
78.339    	14.999    	-4.917    
80.635    	14.523    	-5.586    
82.998    	14.326    	-6.632    
85.430    	14.322    	-6.535    
87.933    	14.074    	-5.595    
90.510    	13.725    	-5.516    
93.162    	13.595    	-5.645    
95.892    	13.455    	-4.912    
98.701    	13.157    	-4.652    
101.594    	13.039    	-5.308    
104.571    	13.134    	-4.332    
107.635    	12.858    	-2.560    
110.789    	12.579    	-2.349    
114.035    	12.740    	-2.045    
117.377    	12.654    	-1.214    
120.816    	12.643    	-1.158    
124.356    	12.717    	0.637    
128.000    	12.394    	1.706    
131.751    	12.602    	1.572    
135.611    	12.807    	3.847    
139.585    	12.821    	5.087    
143.675    	13.215    	6.917    
147.885    	13.517    	7.433    
152.219    	14.349    	8.334    
156.679    	14.687    	9.499    
161.270    	15.659    	8.805    
165.995    	16.632    	8.357    
170.860    	17.638    	5.996    
175.866    	17.870    	3.501    
181.019    	18.901    	2.585    
186.324    	20.051    	-0.072    
191.783    	21.121    	-5.906    
197.403    	21.162    	-12.091    
203.187    	20.732    	-16.541    
209.141    	20.463    	-22.698    
215.269    	18.852    	-28.687    
221.577    	16.939    	-31.612    
228.070    	15.467    	-32.464    
234.753    	14.285    	-32.628    
241.632    	13.260    	-31.963    
248.712    	12.477    	-30.729    
256.000    	11.892    	-29.539    
263.501    	11.356    	-28.091    
271.223    	10.955    	-26.450    
279.170    	10.635    	-24.926    
287.350    	10.370    	-23.424    
295.770    	10.151    	-21.942    
304.437    	9.969    	-20.573    
313.358    	9.805    	-19.128    
322.540    	9.684    	-17.787    
331.991    	9.584    	-16.582    
341.719    	9.489    	-15.423    
351.732    	9.410    	-14.267    
362.039    	9.358    	-13.221    
372.647    	9.304    	-12.249    
383.567    	9.253    	-11.215    
394.806    	9.213    	-10.231    
406.375    	9.186    	-9.267    
418.282    	9.172    	-8.366    
430.539    	9.167    	-7.531    
443.155    	9.164    	-6.781    
456.140    	9.151    	-6.053    
469.506    	9.139    	-5.351    
483.264    	9.129    	-4.611    
497.424    	9.120    	-3.884    
512.000    	9.123    	-3.142    
527.003    	9.129    	-2.417    
542.445    	9.139    	-1.696    
558.340    	9.159    	-0.986    
574.701    	9.189    	-0.321    
591.541    	9.233    	0.266    
608.874    	9.282    	0.728    
626.715    	9.313    	0.990    
645.080    	9.299    	1.285    
663.982    	9.271    	1.698    
683.438    	9.233    	2.298    
703.464    	9.218    	3.048    
724.077    	9.220    	3.820    
745.294    	9.238    	4.629    
767.133    	9.267    	5.430    
789.612    	9.308    	6.236    
812.749    	9.366    	7.035    
836.565    	9.439    	7.853    
861.078    	9.534    	8.648    
886.309    	9.659    	9.410    
912.280    	9.825    	10.082    
939.012    	10.046    	10.469    
966.527    	10.299    	10.294    
994.849    	10.524    	9.415    
1024.000    	10.627    	7.851    
1054.005    	10.404    	5.962    
1084.890    	9.943    	5.970    
1116.680    	9.724    	7.737    
1149.401    	9.708    	9.173    
1183.081    	9.741    	10.300    
1217.748    	9.787    	11.208    
1253.431    	9.841    	12.112    
1290.159    	9.925    	12.962    
1327.964    	10.023    	13.678    
1366.876    	10.111    	14.347    
1406.929    	10.219    	14.971    
1448.155    	10.329    	15.533    
1490.589    	10.452    	16.146    
1534.266    	10.610    	16.757    
1579.224    	10.823    	17.091    
1625.499    	11.036    	17.129    
1673.129    	11.294    	16.708    
1722.156    	11.409    	15.295    
1772.619    	11.231    	14.348    
1824.561    	11.051    	14.579    
1878.024    	10.977    	15.075    
1933.055    	10.912    	15.543    
1989.697    	10.851    	16.287    
2048.000    	10.856    	17.119    
2108.011    	10.884    	17.909    
2169.780    	10.927    	18.721    
2233.360    	11.009    	19.517    
2298.802    	11.073    	20.029    
2366.162    	11.125    	20.885    
2435.496    	11.240    	21.717    
2506.862    	11.389    	22.478    
2580.318    	11.609    	22.768    
2655.927    	11.620    	22.437    
2733.752    	11.567    	23.474    
2813.857    	11.701    	24.586    
2896.309    	11.883    	25.417    
2981.178    	12.092    	26.181    
3068.533    	12.388    	26.608    
3158.448    	12.676    	26.475    
3250.997    	12.748    	25.201    
3346.259    	12.577    	26.114    
3444.312    	12.779    	26.921    
3545.238    	12.944    	27.263    
3649.121    	13.099    	27.036    
3756.049    	13.090    	27.253    
3866.109    	13.093    	27.835    
3979.395    	13.198    	28.694    
4096.000    	13.356    	29.339    
4216.022    	13.512    	29.827    
4339.561    	13.673    	30.401    
4466.720    	13.832    	30.794    
4597.605    	13.971    	31.220    
4732.325    	14.143    	31.955    
4870.992    	14.410    	32.362    
5013.723    	14.630    	32.407    
5160.637    	14.768    	32.454    
5311.855    	14.836    	32.571    
5467.504    	14.873    	33.167    
5627.714    	15.057    	33.960    
5792.619    	15.230    	34.399    
5962.355    	15.380    	35.043    
6137.066    	15.622    	35.750    
6316.896    	15.879    	36.149    
6501.995    	16.105    	36.534    
6692.518    	16.336    	36.841    
6888.623    	16.517    	37.081    
7090.476    	16.663    	37.681    
7298.242    	16.939    	38.274    
7512.097    	17.189    	38.633    
7732.218    	17.408    	39.059    
7958.790    	17.665    	39.579    
8192.000    	17.934    	40.020    
8432.044    	18.217    	40.501    
8679.122    	18.527    	40.937    
8933.439    	18.844    	41.250    
9195.209    	19.126    	41.548    
9464.649    	19.412    	41.933    
9741.985    	19.724    	42.314    
10027.447    	20.047    	42.650    
10321.273    	20.373    	42.928    
10623.710    	20.677    	43.220    
10935.008    	20.991    	43.589    
11255.428    	21.337    	43.963    
11585.238    	21.701    	44.281    
11924.711    	22.058    	44.551    
12274.132    	22.408    	44.858    
12633.791    	22.788    	45.156    
13003.989    	23.155    	45.470    
13385.035    	23.545    	45.778    
13777.247    	23.942    	46.067    
14180.951    	24.345    	46.357    
14596.485    	24.756    	46.643    
15024.194    	25.182    	46.929    
15464.437    	25.625    	47.202    
15917.579    	26.079    	47.453    
16384.000    	26.537    	47.696    
16864.088    	27.001    	47.920    
17358.243    	27.459    	48.151    
17866.879    	27.909    	48.378    
18390.418    	28.349    	48.590    
18929.299    	28.779    	48.784    
19483.969    	29.202    	48.990    
20054.893    	29.592    	49.191    
20642.546    	29.923    	49.442    
