* This data was exported from the Dayton Audio Test System: DATS
*
* Piston Diameter = 94.17 mm
* f(s)= 190.03 Hz
* R(e)= 8.8318 Ohms
* Z(max)= 21.173 Ohms
* Q(ms)= 2.7374
* Q(es)= 1.9589
* Q(ts)= 1.1418
* V(as)= 0 liters     (0 cubic feet)
* L(e)= 0.26397 mH
* n(0)= 0 %
* SPL= 0 1W/1m
* M(ms)= 0 grams
* C(ms)= 0 mm/N
* BL= 0 
* K(r)= 0.47929 
* X(r)= 0.31058 
* K(i)= 0.0019127 
* X(i)= 0.79924 
*
*
Freq            Impedance       Phase
1.029    	8.845    	2.156    
1.059    	8.845    	2.156    
1.091    	8.845    	2.156    
1.122    	8.845    	2.156    
1.155    	8.845    	2.156    
1.189    	8.845    	2.156    
1.224    	8.845    	2.156    
1.260    	8.845    	2.156    
1.297    	8.845    	2.156    
1.335    	8.837    	2.303    
1.374    	8.837    	2.303    
1.414    	8.837    	2.303    
1.456    	8.837    	2.303    
1.498    	8.837    	2.303    
1.542    	8.837    	2.303    
1.587    	8.837    	2.303    
1.634    	8.837    	2.303    
1.682    	8.837    	2.466    
1.731    	8.837    	2.466    
1.782    	8.837    	2.466    
1.834    	8.837    	2.466    
1.888    	8.837    	2.466    
1.943    	8.837    	2.466    
2.000    	8.844    	2.732    
2.059    	8.844    	2.732    
2.119    	8.844    	2.732    
2.181    	8.844    	2.732    
2.245    	8.844    	2.732    
2.311    	8.844    	2.732    
2.378    	8.858    	3.054    
2.448    	8.858    	3.054    
2.520    	8.858    	3.054    
2.594    	8.858    	3.054    
2.670    	8.865    	3.382    
2.748    	8.865    	3.382    
2.828    	8.865    	3.382    
2.911    	8.865    	3.382    
2.997    	8.871    	3.694    
3.084    	8.871    	3.694    
3.175    	8.871    	3.694    
3.268    	8.871    	3.694    
3.364    	8.887    	4.011    
3.462    	8.887    	4.011    
3.564    	8.887    	4.011    
3.668    	8.906    	4.391    
3.775    	8.906    	4.391    
3.886    	8.906    	4.391    
4.000    	8.931    	4.774    
4.117    	8.931    	4.774    
4.238    	8.931    	4.774    
4.362    	8.951    	5.149    
4.490    	8.951    	5.149    
4.621    	8.951    	5.149    
4.757    	8.977    	5.527    
4.896    	8.977    	5.527    
5.040    	9.002    	5.889    
5.187    	9.002    	5.889    
5.339    	9.027    	6.234    
5.496    	9.027    	6.234    
5.657    	9.049    	6.570    
5.823    	9.049    	6.570    
5.993    	9.072    	6.896    
6.169    	9.072    	6.896    
6.350    	9.097    	7.220    
6.536    	9.097    	7.220    
6.727    	9.126    	7.544    
6.924    	9.126    	7.544    
7.127    	9.158    	7.863    
7.336    	9.192    	8.180    
7.551    	9.192    	8.180    
7.772    	9.226    	8.496    
8.000    	9.260    	8.808    
8.234    	9.260    	8.808    
8.476    	9.295    	9.118    
8.724    	9.332    	9.429    
8.980    	9.371    	9.740    
9.243    	9.371    	9.740    
9.514    	9.413    	10.055    
9.792    	9.457    	10.374    
10.079    	9.499    	10.688    
10.375    	9.538    	10.991    
10.679    	9.576    	11.281    
10.992    	9.611    	11.563    
11.314    	9.642    	11.839    
11.645    	9.671    	12.102    
11.986    	9.703    	12.351    
12.338    	9.739    	12.589    
12.699    	9.776    	12.817    
13.071    	9.816    	13.027    
13.454    	9.861    	13.219    
13.849    	9.910    	13.400    
14.254    	9.960    	13.571    
14.672    	10.036    	13.809    
15.102    	10.112    	14.043    
15.545    	10.164    	14.202    
16.000    	10.248    	14.437    
16.469    	10.339    	14.673    
16.951    	10.432    	14.908    
17.448    	10.528    	15.138    
17.959    	10.618    	15.368    
18.486    	10.702    	15.594    
19.027    	10.789    	15.819    
19.585    	10.902    	16.102    
20.159    	10.986    	16.286    
20.749    	11.074    	16.440    
21.357    	11.193    	16.589    
21.983    	11.308    	16.700    
22.627    	11.407    	16.787    
23.290    	11.505    	16.849    
23.973    	11.617    	16.876    
24.675    	11.738    	16.870    
25.398    	11.859    	16.843    
26.143    	11.987    	16.807    
26.909    	12.146    	16.782    
27.697    	12.306    	16.777    
28.509    	12.421    	16.771    
29.344    	12.545    	16.727    
30.204    	12.664    	16.576    
31.089    	12.743    	16.363    
32.000    	12.832    	16.042    
32.938    	12.949    	15.640    
33.903    	13.101    	15.183    
34.896    	13.276    	14.766    
35.919    	13.453    	14.455    
36.971    	13.612    	14.253    
38.055    	13.754    	14.119    
39.170    	13.877    	14.012    
40.317    	13.949    	13.926    
41.499    	14.003    	13.809    
42.715    	14.067    	13.504    
43.967    	14.144    	12.733    
45.255    	14.264    	11.855    
46.581    	14.464    	11.268    
47.946    	14.719    	10.830    
49.351    	14.811    	10.256    
50.797    	14.750    	9.715    
52.285    	14.691    	9.069    
53.817    	14.696    	8.669    
55.394    	14.883    	8.757    
57.018    	15.341    	8.801    
58.688    	15.595    	7.407    
60.408    	15.427    	6.168    
62.178    	15.221    	4.849    
64.000    	15.107    	3.258    
65.875    	15.106    	2.259    
67.806    	15.126    	2.221    
69.792    	14.935    	2.401    
71.838    	14.666    	1.853    
73.943    	14.572    	0.981    
76.109    	14.606    	0.692    
78.339    	14.526    	1.065    
80.635    	14.240    	1.015    
82.998    	14.071    	0.059    
85.430    	14.199    	-0.261    
87.933    	14.170    	0.685    
90.510    	13.894    	0.870    
93.162    	13.825    	0.025    
95.892    	13.913    	0.114    
98.701    	13.671    	0.923    
101.594    	13.437    	0.587    
104.571    	13.673    	0.676    
107.635    	13.654    	2.232    
110.789    	13.341    	1.686    
114.035    	13.446    	1.480    
117.377    	13.408    	3.120    
120.816    	13.309    	3.450    
124.356    	13.627    	4.576    
128.000    	13.543    	6.155    
131.751    	13.844    	5.757    
135.611    	14.301    	7.642    
139.585    	14.382    	8.183    
143.675    	15.094    	8.699    
147.885    	15.558    	9.025    
152.219    	16.506    	8.132    
156.679    	16.867    	7.985    
161.270    	18.112    	5.497    
165.995    	18.881    	3.053    
170.860    	18.729    	-0.768    
175.866    	18.439    	-0.664    
181.019    	20.044    	-1.593    
186.324    	20.769    	-6.343    
191.783    	20.965    	-11.867    
197.403    	20.538    	-16.172    
203.187    	20.039    	-20.580    
209.141    	19.094    	-25.436    
215.269    	17.517    	-28.442    
221.577    	16.289    	-29.996    
228.070    	15.215    	-30.881    
234.753    	14.206    	-31.565    
241.632    	13.204    	-30.939    
248.712    	12.480    	-29.756    
256.000    	11.907    	-28.498    
263.501    	11.432    	-27.051    
271.223    	11.059    	-25.621    
279.170    	10.768    	-24.125    
287.350    	10.509    	-22.759    
295.770    	10.288    	-21.298    
304.437    	10.110    	-19.957    
313.358    	9.956    	-18.621    
322.540    	9.836    	-17.332    
331.991    	9.742    	-16.161    
341.719    	9.644    	-15.049    
351.732    	9.570    	-13.905    
362.039    	9.514    	-12.906    
372.647    	9.455    	-11.891    
383.567    	9.414    	-10.878    
394.806    	9.382    	-9.942    
406.375    	9.353    	-9.024    
418.282    	9.334    	-8.158    
430.539    	9.329    	-7.324    
443.155    	9.326    	-6.576    
456.140    	9.315    	-5.868    
469.506    	9.304    	-5.184    
483.264    	9.292    	-4.454    
497.424    	9.287    	-3.713    
512.000    	9.292    	-3.000    
527.003    	9.301    	-2.295    
542.445    	9.312    	-1.593    
558.340    	9.332    	-0.918    
574.701    	9.364    	-0.278    
591.541    	9.401    	0.270    
608.874    	9.442    	0.754    
626.715    	9.477    	1.101    
645.080    	9.481    	1.331    
663.982    	9.442    	1.675    
683.438    	9.401    	2.298    
703.464    	9.387    	3.046    
724.077    	9.392    	3.805    
745.294    	9.410    	4.591    
767.133    	9.438    	5.384    
789.612    	9.484    	6.170    
812.749    	9.540    	6.956    
836.565    	9.614    	7.756    
861.078    	9.711    	8.525    
886.309    	9.838    	9.271    
912.280    	10.009    	9.907    
939.012    	10.234    	10.251    
966.527    	10.484    	10.009    
994.849    	10.705    	9.104    
1024.000    	10.783    	7.497    
1054.005    	10.534    	5.766    
1084.890    	10.094    	5.897    
1116.680    	9.888    	7.571    
1149.401    	9.871    	8.964    
1183.081    	9.900    	10.092    
1217.748    	9.948    	10.980    
1253.431    	10.007    	11.866    
1290.159    	10.088    	12.700    
1327.964    	10.186    	13.387    
1366.876    	10.276    	14.030    
1406.929    	10.379    	14.649    
1448.155    	10.493    	15.244    
1490.589    	10.623    	15.828    
1534.266    	10.795    	16.369    
1579.224    	11.021    	16.622    
1625.499    	11.227    	16.424    
1673.129    	11.418    	15.893    
1722.156    	11.499    	14.678    
1772.619    	11.308    	13.901    
1824.561    	11.140    	14.273    
1878.024    	11.079    	14.806    
1933.055    	11.028    	15.319    
1989.697    	10.981    	16.026    
2048.000    	10.987    	16.814    
2108.011    	11.015    	17.566    
2169.780    	11.061    	18.341    
2233.360    	11.136    	19.109    
2298.802    	11.210    	19.636    
2366.162    	11.256    	20.447    
2435.496    	11.370    	21.245    
2506.862    	11.508    	21.989    
2580.318    	11.726    	22.300    
2655.927    	11.729    	21.993    
2733.752    	11.686    	23.015    
2813.857    	11.817    	24.110    
2896.309    	12.003    	24.938    
2981.178    	12.223    	25.656    
3068.533    	12.497    	25.943    
3158.448    	12.779    	25.996    
3250.997    	12.854    	24.647    
3346.259    	12.693    	25.548    
3444.312    	12.899    	26.251    
3545.238    	13.006    	26.385    
3649.121    	13.145    	26.507    
3756.049    	13.153    	26.587    
3866.109    	13.141    	27.279    
3979.395    	13.253    	28.153    
4096.000    	13.417    	28.821    
4216.022    	13.593    	29.235    
4339.561    	13.721    	29.694    
4466.720    	13.854    	30.116    
4597.605    	14.007    	30.698    
4732.325    	14.193    	31.330    
4870.992    	14.451    	31.694    
5013.723    	14.643    	31.741    
5160.637    	14.785    	31.750    
5311.855    	14.815    	31.974    
5467.504    	14.876    	32.631    
5627.714    	15.059    	33.331    
5792.619    	15.216    	33.818    
5962.355    	15.378    	34.458    
6137.066    	15.610    	35.147    
6316.896    	15.854    	35.514    
6501.995    	16.069    	35.921    
6692.518    	16.290    	36.248    
6888.623    	16.474    	36.546    
7090.476    	16.625    	37.085    
7298.242    	16.884    	37.671    
7512.097    	17.117    	38.030    
7732.218    	17.329    	38.502    
7958.790    	17.587    	39.031    
8192.000    	17.847    	39.486    
8432.044    	18.124    	39.977    
8679.122    	18.435    	40.396    
8933.439    	18.734    	40.682    
9195.209    	18.996    	41.025    
9464.649    	19.284    	41.440    
9741.985    	19.594    	41.827    
10027.447    	19.910    	42.167    
10321.273    	20.226    	42.455    
10623.710    	20.522    	42.775    
10935.008    	20.832    	43.162    
11255.428    	21.172    	43.533    
11585.238    	21.527    	43.849    
11924.711    	21.872    	44.138    
12274.132    	22.211    	44.478    
12633.791    	22.591    	44.776    
13003.989    	22.941    	45.095    
13385.035    	23.323    	45.421    
13777.247    	23.709    	45.736    
14180.951    	24.105    	46.036    
14596.485    	24.508    	46.341    
15024.194    	24.924    	46.643    
15464.437    	25.363    	46.925    
15917.579    	25.796    	47.188    
16384.000    	26.241    	47.444    
16864.088    	26.697    	47.689    
17358.243    	27.146    	47.936    
17866.879    	27.601    	48.183    
18390.418    	28.051    	48.434    
18929.299    	28.501    	48.662    
19483.969    	28.949    	48.898    
20054.893    	29.378    	49.132    
20642.546    	29.805    	49.418    
