* This data was exported from the Dayton Audio Test System: DATS
*
* Piston Diameter = 94.17 mm
* f(s)= 73.448 Hz
* R(e)= 7.8842 Ohms
* Z(max)= 45.506 Ohms
* Q(ms)= 2.5746
* Q(es)= 0.53955
* Q(ts)= 0.44607
* V(as)= 5.3964 liters     (0.19057 cubic feet)
* L(e)= 0.27399 mH
* n(0)= 0.37786 %
* SPL= 87.873 1W/1m
* M(ms)= 5.9282 grams
* C(ms)= 0.792 mm/N
* BL= 6.3228 
* K(r)= 0.23026 
* X(r)= 0.37563 
* K(i)= 0.0032802 
* X(i)= 0.75456 
*
*
Freq            Impedance       Phase
1.029    	7.998    	4.404    
1.059    	7.998    	4.404    
1.091    	7.998    	4.404    
1.122    	7.998    	4.404    
1.155    	7.998    	4.404    
1.189    	7.998    	4.404    
1.224    	7.998    	4.404    
1.260    	7.998    	4.404    
1.297    	7.998    	4.404    
1.335    	7.956    	4.202    
1.374    	7.956    	4.202    
1.414    	7.956    	4.202    
1.456    	7.956    	4.202    
1.498    	7.956    	4.202    
1.542    	7.956    	4.202    
1.587    	7.956    	4.202    
1.634    	7.956    	4.202    
1.682    	7.849    	4.197    
1.731    	7.849    	4.197    
1.782    	7.849    	4.197    
1.834    	7.849    	4.197    
1.888    	7.849    	4.197    
1.943    	7.849    	4.197    
2.000    	7.870    	4.267    
2.059    	7.870    	4.267    
2.119    	7.870    	4.267    
2.181    	7.870    	4.267    
2.245    	7.870    	4.267    
2.311    	7.870    	4.267    
2.378    	7.815    	4.300    
2.448    	7.815    	4.300    
2.520    	7.815    	4.300    
2.594    	7.815    	4.300    
2.670    	7.814    	4.414    
2.748    	7.814    	4.414    
2.828    	7.814    	4.414    
2.911    	7.814    	4.414    
2.997    	7.830    	4.629    
3.084    	7.830    	4.629    
3.175    	7.830    	4.629    
3.268    	7.830    	4.629    
3.364    	7.827    	5.088    
3.462    	7.827    	5.088    
3.564    	7.827    	5.088    
3.668    	7.856    	5.637    
3.775    	7.856    	5.637    
3.886    	7.856    	5.637    
4.000    	7.842    	6.177    
4.117    	7.842    	6.177    
4.238    	7.842    	6.177    
4.362    	7.846    	6.770    
4.490    	7.846    	6.770    
4.621    	7.846    	6.770    
4.757    	7.857    	7.336    
4.896    	7.857    	7.336    
5.040    	7.855    	7.911    
5.187    	7.855    	7.911    
5.339    	7.889    	8.459    
5.496    	7.889    	8.459    
5.657    	7.917    	8.951    
5.823    	7.917    	8.951    
5.993    	7.948    	9.428    
6.169    	7.948    	9.428    
6.350    	7.984    	9.856    
6.536    	7.984    	9.856    
6.727    	8.001    	10.255    
6.924    	8.001    	10.255    
7.127    	8.034    	10.658    
7.336    	8.064    	11.059    
7.551    	8.064    	11.059    
7.772    	8.076    	11.490    
8.000    	8.095    	11.944    
8.234    	8.095    	11.944    
8.476    	8.113    	12.410    
8.724    	8.138    	12.903    
8.980    	8.183    	13.393    
9.243    	8.183    	13.393    
9.514    	8.230    	13.867    
9.792    	8.286    	14.327    
10.079    	8.343    	14.754    
10.375    	8.382    	15.149    
10.679    	8.422    	15.520    
10.992    	8.461    	15.871    
11.314    	8.490    	16.225    
11.645    	8.520    	16.588    
11.986    	8.552    	16.958    
12.338    	8.585    	17.348    
12.699    	8.622    	17.751    
13.071    	8.656    	18.158    
13.454    	8.700    	18.574    
13.849    	8.757    	18.995    
14.254    	8.816    	19.415    
14.672    	8.916    	20.040    
15.102    	9.022    	20.662    
15.545    	9.087    	21.081    
16.000    	9.178    	21.696    
16.469    	9.265    	22.323    
16.951    	9.341    	22.978    
17.448    	9.408    	23.650    
17.959    	9.467    	24.336    
18.486    	9.517    	25.014    
19.027    	9.579    	25.650    
19.585    	9.659    	26.429    
20.159    	9.717    	26.941    
20.749    	9.788    	27.388    
21.357    	9.889    	27.910    
21.983    	10.006    	28.359    
22.627    	10.121    	28.775    
23.290    	10.248    	29.185    
23.973    	10.392    	29.615    
24.675    	10.558    	30.072    
25.398    	10.742    	30.571    
26.143    	10.938    	31.115    
26.909    	11.190    	31.868    
27.697    	11.453    	32.678    
28.509    	11.643    	33.342    
29.344    	11.873    	34.153    
30.204    	12.142    	35.066    
31.089    	12.361    	35.761    
32.000    	12.613    	36.432    
32.938    	12.903    	37.106    
33.903    	13.235    	37.799    
34.896    	13.579    	38.484    
35.919    	13.929    	39.136    
36.971    	14.275    	39.692    
38.055    	14.626    	40.088    
39.170    	15.084    	40.318    
40.317    	15.618    	40.378    
41.499    	16.281    	40.386    
42.715    	17.054    	40.488    
43.967    	17.912    	40.913    
45.255    	18.905    	41.718    
46.581    	19.809    	42.602    
47.946    	20.583    	43.080    
49.351    	21.335    	42.799    
50.797    	22.434    	41.637    
52.285    	23.886    	40.232    
53.817    	25.569    	38.961    
55.394    	27.556    	37.461    
57.018    	29.450    	35.781    
58.688    	31.493    	33.699    
60.408    	34.152    	30.828    
62.178    	36.706    	27.722    
64.000    	38.628    	24.380    
65.875    	40.018    	19.684    
67.806    	41.173    	12.923    
69.792    	42.859    	5.193    
71.838    	44.774    	-1.363    
73.943    	45.382    	-6.370    
76.109    	44.017    	-11.420    
78.339    	41.606    	-17.327    
80.635    	39.339    	-23.037    
82.998    	37.198    	-27.943    
85.430    	34.992    	-32.657    
87.933    	33.456    	-36.946    
90.510    	32.126    	-38.601    
93.162    	29.709    	-39.065    
95.892    	26.824    	-41.631    
98.701    	25.220    	-44.738    
101.594    	24.280    	-45.973    
104.571    	23.040    	-45.921    
107.635    	21.810    	-45.738    
110.789    	20.243    	-45.609    
114.035    	18.946    	-47.372    
117.377    	18.683    	-48.168    
120.816    	17.994    	-45.990    
124.356    	16.762    	-45.257    
128.000    	15.935    	-45.511    
131.751    	15.372    	-45.983    
135.611    	15.180    	-44.733    
139.585    	14.366    	-42.517    
143.675    	13.613    	-43.241    
147.885    	13.408    	-42.581    
152.219    	13.036    	-41.423    
156.679    	12.485    	-39.964    
161.270    	12.080    	-40.271    
165.995    	11.898    	-38.534    
170.860    	11.449    	-37.661    
175.866    	11.186    	-36.705    
181.019    	10.985    	-35.887    
186.324    	10.648    	-34.442    
191.783    	10.512    	-33.881    
197.403    	10.228    	-32.441    
203.187    	10.082    	-31.514    
209.141    	9.905    	-30.577    
215.269    	9.703    	-29.365    
221.577    	9.615    	-28.332    
228.070    	9.426    	-27.423    
234.753    	9.322    	-26.306    
241.632    	9.200    	-25.243    
248.712    	9.113    	-24.382    
256.000    	8.985    	-23.302    
263.501    	8.913    	-22.285    
271.223    	8.820    	-21.304    
279.170    	8.755    	-20.327    
287.350    	8.677    	-19.419    
295.770    	8.611    	-18.390    
304.437    	8.561    	-17.529    
313.358    	8.501    	-16.593    
322.540    	8.455    	-15.660    
331.991    	8.413    	-14.747    
341.719    	8.373    	-13.820    
351.732    	8.342    	-12.916    
362.039    	8.321    	-12.037    
372.647    	8.301    	-11.183    
383.567    	8.290    	-10.329    
394.806    	8.283    	-9.521    
406.375    	8.283    	-8.804    
418.282    	8.278    	-8.144    
430.539    	8.256    	-7.501    
443.155    	8.234    	-6.779    
456.140    	8.220    	-6.006    
469.506    	8.213    	-5.223    
483.264    	8.214    	-4.446    
497.424    	8.220    	-3.705    
512.000    	8.225    	-2.994    
527.003    	8.236    	-2.274    
542.445    	8.249    	-1.536    
558.340    	8.271    	-0.826    
574.701    	8.301    	-0.158    
591.541    	8.336    	0.461    
608.874    	8.383    	0.980    
626.715    	8.420    	1.290    
645.080    	8.416    	1.510    
663.982    	8.377    	1.943    
683.438    	8.343    	2.627    
703.464    	8.330    	3.443    
724.077    	8.338    	4.282    
745.294    	8.364    	5.102    
767.133    	8.394    	5.873    
789.612    	8.435    	6.648    
812.749    	8.485    	7.364    
836.565    	8.538    	8.063    
861.078    	8.600    	8.757    
886.309    	8.675    	9.378    
912.280    	8.752    	9.909    
939.012    	8.832    	10.337    
966.527    	8.911    	10.638    
994.849    	8.964    	10.860    
1024.000    	8.961    	11.052    
1054.005    	8.952    	11.534    
1084.890    	8.960    	12.191    
1116.680    	8.985    	12.977    
1149.401    	9.032    	13.786    
1183.081    	9.100    	14.594    
1217.748    	9.186    	15.341    
1253.431    	9.280    	16.133    
1290.159    	9.413    	16.882    
1327.964    	9.543    	17.366    
1366.876    	9.687    	18.020    
1406.929    	9.864    	18.394    
1448.155    	10.050    	18.671    
1490.589    	10.260    	18.581    
1534.266    	10.426    	18.154    
1579.224    	10.530    	17.494    
1625.499    	10.551    	16.960    
1673.129    	10.549    	16.454    
1722.156    	10.435    	16.000    
1772.619    	10.268    	16.461    
1824.561    	10.221    	17.244    
1878.024    	10.207    	18.160    
1933.055    	10.258    	18.916    
1989.697    	10.328    	19.568    
2048.000    	10.379    	20.087    
2108.011    	10.421    	20.713    
2169.780    	10.472    	21.296    
2233.360    	10.533    	21.996    
2298.802    	10.590    	22.699    
2366.162    	10.679    	23.428    
2435.496    	10.784    	24.212    
2506.862    	10.904    	24.908    
2580.318    	11.050    	25.531    
2655.927    	11.182    	26.079    
2733.752    	11.318    	26.697    
2813.857    	11.492    	27.292    
2896.309    	11.705    	27.751    
2981.178    	11.928    	27.907    
3068.533    	12.092    	27.734    
3158.448    	12.164    	27.653    
3250.997    	12.234    	27.875    
3346.259    	12.325    	28.116    
3444.312    	12.394    	28.282    
3545.238    	12.415    	28.635    
3649.121    	12.450    	29.293    
3756.049    	12.533    	30.119    
3866.109    	12.673    	30.983    
3979.395    	12.869    	31.722    
4096.000    	13.070    	32.226    
4216.022    	13.263    	32.766    
4339.561    	13.482    	33.166    
4466.720    	13.681    	33.539    
4597.605    	13.908    	33.922    
4732.325    	14.181    	34.118    
4870.992    	14.408    	33.757    
5013.723    	14.434    	33.495    
5160.637    	14.419    	33.910    
5311.855    	14.497    	34.704    
5467.504    	14.667    	35.458    
5627.714    	14.860    	36.071    
5792.619    	15.067    	36.656    
5962.355    	15.301    	37.223    
6137.066    	15.561    	37.639    
6316.896    	15.786    	37.954    
6501.995    	16.014    	38.335    
6692.518    	16.249    	38.638    
6888.623    	16.422    	38.962    
7090.476    	16.657    	39.553    
7298.242    	16.931    	39.925    
7512.097    	17.162    	40.272    
7732.218    	17.413    	40.738    
7958.790    	17.684    	41.161    
8192.000    	17.970    	41.638    
8432.044    	18.303    	42.024    
8679.122    	18.627    	42.254    
8933.439    	18.909    	42.486    
9195.209    	19.188    	42.818    
9464.649    	19.497    	43.182    
9741.985    	19.829    	43.494    
10027.447    	20.159    	43.736    
10321.273    	20.473    	43.983    
10623.710    	20.788    	44.300    
10935.008    	21.132    	44.614    
11255.428    	21.494    	44.915    
11585.238    	21.860    	45.157    
11924.711    	22.213    	45.399    
12274.132    	22.579    	45.685    
12633.791    	22.971    	45.916    
13003.989    	23.341    	46.162    
13385.035    	23.734    	46.434    
13777.247    	24.136    	46.686    
14180.951    	24.546    	46.938    
14596.485    	24.975    	47.184    
15024.194    	25.411    	47.410    
15464.437    	25.857    	47.621    
15917.579    	26.312    	47.825    
16384.000    	26.773    	48.020    
16864.088    	27.240    	48.211    
17358.243    	27.701    	48.393    
17866.879    	28.153    	48.569    
18390.418    	28.598    	48.743    
18929.299    	29.027    	48.905    
19483.969    	29.439    	49.065    
20054.893    	29.823    	49.249    
20642.546    	30.146    	49.474    
